#Creator: pendulumEventBuffer
#Creation time: Tue Apr  9 17:12:53 2024
#Time	Period	Transit time
#[s]	[s]	[s]
2.235046	2.133149	0.031032
3.301621	2.133120	0.031102
4.368166	2.133100	0.031168
5.434721	2.133069	0.031234
6.501235	2.133042	0.031298
7.567763	2.133027	0.031362
8.634262	2.133024	0.031428
9.700787	2.133005	0.031494
10.767267	2.132973	0.031554
11.833760	2.132957	0.031612
12.900224	2.132944	0.031676
13.966704	2.132923	0.031744
15.033147	2.132897	0.031814
16.099601	2.132874	0.031874
17.166021	2.132854	0.031942
18.232455	2.132860	0.032006
19.298881	2.132853	0.032070
20.365308	2.132836	0.032136
21.431717	2.132832	0.032202
22.498140	2.132801	0.032272
23.564518	2.132764	0.032332
24.630904	2.132731	0.032396
25.697249	2.132692	0.032458
26.763596	2.132682	0.032520
27.829931	2.132670	0.032586
28.896266	2.132647	0.032656
29.962578	2.132631	0.032728
31.028897	2.132618	0.032798
32.095196	2.132603	0.032860
33.161500	2.132581	0.032916
34.227777	2.132571	0.032982
35.294071	2.132548	0.033050
36.360325	2.132527	0.033106
37.426598	2.132502	0.033168
38.492827	2.132486	0.033238
39.559084	2.132475	0.033308
40.625302	2.132447	0.033384
41.691531	2.132444	0.033454
42.757746	2.132432	0.033520
43.823963	2.132384	0.033594
44.890130	2.132349	0.033668
45.956312	2.132335	0.033732
47.022465	2.132323	0.033798
48.088635	2.132311	0.033870
49.154776	2.132280	0.033936
50.220915	2.132252	0.034006
51.287028	2.132244	0.034076
52.353159	2.132241	0.034134
53.419269	2.132233	0.034202
54.485392	2.132217	0.034272
55.551486	2.132210	0.034340
56.617602	2.132203	0.034412
57.683689	2.132181	0.034482
58.749783	2.132147	0.034554
59.815836	2.132122	0.034624
60.881905	2.132106	0.034694
61.947942	2.132087	0.034756
63.013992	2.132057	0.034828
64.079999	2.132034	0.034910
65.146026	2.132007	0.034976
66.212006	2.131986	0.035028
67.278012	2.131990	0.035096
68.343996	2.131985	0.035172
69.409997	2.131960	0.035234
70.475956	2.131927	0.035312
71.541924	2.131933	0.035392
72.607889	2.131936	0.035458
73.673860	2.131863	0.035532
74.739752	2.131796	0.035608
75.805656	2.131779	0.035672
76.871531	2.131770	0.035742
77.937426	2.131760	0.035808
79.003291	2.131749	0.035878
80.069175	2.131735	0.035958
81.135026	2.131722	0.036024
82.200897	2.131715	0.036090
83.266741	2.131694	0.036170
84.332591	2.131668	0.036242
85.398409	2.131668	0.036298
86.464259	2.131666	0.036374
87.530075	2.131632	0.036462
88.595891	2.131610	0.036534
89.661685	2.131605	0.036598
90.727496	2.131589	0.036664
91.793274	2.131575	0.036736
92.859071	2.131553	0.036814
93.924827	2.131528	0.036886
94.990599	2.131515	0.036958
96.056342	2.131487	0.037032
97.122086	2.131465	0.037108
98.187807	2.131441	0.037178
99.253527	2.131423	0.037246
100.319230	2.131402	0.037328
101.384929	2.131409	0.037406
102.450639	2.131439	0.037482
103.516368	2.131374	0.037560
104.582013	2.131313	0.037634
105.647681	2.131324	0.037710
106.713337	2.131332	0.037786
107.779013	2.131317	0.037862
108.844654	2.131295	0.037940
109.910308	2.131264	0.038016
110.975918	2.131231	0.038096
112.041539	2.131251	0.038178
113.107169	2.131263	0.038258
114.172802	2.131133	0.038328
115.238302	2.131070	0.038392
116.303872	2.131086	0.038484
117.369388	2.131066	0.038572
118.434938	2.131075	0.038640
119.500463	2.131077	0.038718
120.566015	2.131058	0.038798
121.631521	2.131063	0.038882
122.697078	2.131065	0.038956
123.762586	2.131034	0.039024
124.828112	2.131032	0.039104
125.893618	2.131038	0.039180
126.959150	2.131020	0.039256
128.024638	2.131004	0.039344
129.090154	2.130989	0.039424
130.155627	2.130969	0.039494
131.221123	2.130968	0.039570
132.286595	2.130952	0.039650
133.352075	2.130925	0.039726
134.417520	2.130898	0.039804
135.482973	2.130881	0.039878
136.548401	2.130877	0.039946
137.613850	2.130870	0.040020
138.679271	2.130871	0.040098
139.744721	2.130865	0.040182
140.810136	2.130846	0.040264
141.875567	2.130821	0.040338
142.940957	2.130799	0.040410
144.006366	2.130796	0.040484
145.071753	2.130787	0.040566
146.137153	2.130771	0.040646
147.202524	2.130760	0.040724
148.267913	2.130747	0.040794
149.333271	2.130731	0.040870
150.398644	2.130711	0.040948
151.463982	2.130701	0.041024
152.529345	2.130699	0.041114
153.594681	2.130689	0.041194
154.660034	2.130683	0.041264
155.725364	2.130680	0.041344
156.790714	2.130670	0.041424
157.856034	2.130649	0.041496
158.921363	2.130630	0.041574
159.986664	2.130637	0.041652
161.052000	2.130625	0.041728
162.117289	2.130585	0.041802
163.182585	2.130558	0.041874
164.247847	2.130549	0.041958
165.313134	2.130536	0.042044
166.378383	2.130519	0.042126
167.443653	2.130511	0.042194
168.508894	2.130509	0.042264
169.574162	2.130506	0.042356
170.639400	2.130483	0.042436
171.704645	2.130469	0.042518
172.769869	2.130468	0.042606
173.835113	2.130440	0.042678
174.900309	2.130420	0.042758
175.965533	2.130414	0.042838
177.030723	2.130403	0.042914
178.095936	2.130394	0.042996
179.161117	2.130390	0.043078
180.226326	2.130380	0.043156
181.291497	2.130358	0.043230
182.356684	2.130344	0.043312
183.421841	2.130335	0.043390
184.487019	2.130323	0.043466
185.552164	2.130310	0.043548
186.617329	2.130289	0.043634
187.682453	2.130278	0.043714
188.747607	2.130278	0.043794
189.812731	2.130273	0.043882
190.877880	2.130272	0.043964
191.943003	2.130268	0.044046
193.008148	2.130247	0.044132
194.073250	2.130231	0.044216
195.138379	2.130221	0.044294
196.203471	2.130216	0.044370
197.268595	2.130213	0.044454
198.333684	2.130197	0.044536
199.398792	2.130188	0.044628
200.463872	2.130176	0.044716
201.528968	2.130160	0.044792
202.594032	2.130148	0.044876
203.659116	2.130123	0.044956
204.724155	2.130113	0.045034
205.789229	2.130113	0.045118
206.854268	2.130117	0.045200
207.919346	2.130119	0.045284
208.984387	2.130108	0.045378
210.049454	2.130095	0.045464
211.114482	2.130095	0.045544
212.179549	2.130100	0.045618
213.244582	2.130082	0.045704
214.309631	2.130064	0.045798
215.374646	2.130045	0.045876
216.439676	2.130033	0.045960
217.504679	2.130014	0.046050
218.569690	2.129990	0.046136
219.634669	2.129976	0.046230
220.699666	2.129954	0.046316
221.764623	2.129939	0.046390
222.829605	2.129929	0.046470
223.894552	2.129930	0.046560
224.959535	2.129929	0.046654
226.024481	2.129944	0.046738
227.089479	2.129945	0.046826
228.154426	2.129907	0.046912
229.219386	2.129866	0.046996
230.284292	2.129851	0.047076
231.349237	2.129838	0.047162
232.414130	2.129827	0.047256
233.479064	2.129804	0.047352
234.543934	2.129769	0.047444
235.608833	2.129768	0.047526
236.673702	2.129742	0.047616
237.738575	2.129744	0.047698
238.803446	2.129756	0.047784
239.868331	2.129753	0.047882
240.933199	2.129766	0.047974
241.998097	2.129761	0.048062
243.062960	2.129751	0.048148
244.127848	2.129739	0.048228
245.192699	2.129732	0.048314
246.257580	2.129722	0.048412
247.322421	2.129717	0.048506
248.387297	2.129707	0.048598
249.452128	2.129694	0.048696
250.516991	2.129688	0.048786
251.581816	2.129663	0.048864
252.646654	2.129659	0.048944
253.711475	2.129661	0.049038
254.776315	2.129649	0.049134
255.841124	2.129631	0.049224
256.905946	2.129620	0.049316
257.970744	2.129623	0.049400
259.035569	2.129609	0.049494
260.100353	2.129609	0.049590
261.165178	2.129598	0.049676
262.229951	2.129590	0.049766
263.294768	2.129596	0.049864
264.359547	2.129580	0.049958
265.424348	2.129588	0.050044
266.489135	2.129584	0.050138
267.553932	2.129587	0.050232
268.618722	2.129593	0.050332
269.683525	2.129587	0.050434
270.748309	2.129618	0.050526
271.813143	2.129586	0.050614
272.877895	2.129533	0.050706
273.942676	2.129528	0.050800
275.007423	2.129495	0.050898
276.072171	2.129456	0.050998
277.136879	2.129454	0.051082
278.201625	2.129448	0.051182
279.266327	2.129430	0.051298
280.331055	2.129410	0.051398
281.395737	2.129414	0.051498
282.460469	2.129456	0.051594
283.525193	2.129481	0.051686
284.589950	2.129435	0.051780
285.654628	2.129378	0.051880
286.719328	2.129356	0.051984
287.783984	2.129352	0.052084
288.848680	2.129357	0.052180
289.913341	2.129334	0.052274
290.978014	2.129321	0.052368
292.042662	2.129308	0.052456
293.107322	2.129296	0.052560
294.171958	2.129311	0.052660
295.236633	2.129324	0.052750
296.301282	2.129319	0.052856
297.365952	2.129303	0.052968
298.430585	2.129304	0.053070
299.495256	2.129298	0.053168
300.559883	2.129283	0.053266
301.624539	2.129269	0.053354
302.689152	2.129264	0.053452
303.753803	2.129249	0.053562
304.818401	2.129237	0.053662
305.883040	2.129230	0.053752
306.947631	2.129240	0.053850
308.012280	2.129232	0.053956
309.076863	2.129226	0.054062
310.141506	2.129238	0.054164
311.206101	2.129224	0.054258
312.270730	2.129223	0.054360
313.335324	2.129218	0.054464
314.399948	2.129216	0.054560
315.464540	2.129215	0.054656
316.529163	2.129199	0.054758
317.593739	2.129176	0.054870
318.658339	2.129164	0.054958
319.722903	2.129170	0.055042
320.787509	2.129164	0.055158
321.852067	2.129157	0.055262
322.916666	2.129156	0.055356
323.981223	2.129151	0.055462
325.045817	2.129140	0.055566
326.110363	2.129114	0.055662
327.174931	2.129107	0.055750
328.239470	2.129115	0.055860
329.304046	2.129109	0.055968
330.368579	2.129100	0.056062
331.433146	2.129101	0.056172
332.497680	2.129070	0.056276
333.562216	2.129041	0.056368
334.626721	2.129049	0.056474
335.691265	2.129048	0.056582
336.755769	2.129046	0.056686
337.820311	2.129022	0.056802
338.884791	2.129006	0.056910
339.949317	2.129004	0.057006
341.013795	2.128977	0.057106
342.078294	2.128961	0.057216
343.142756	2.128950	0.057324
344.207244	2.128936	0.057420
345.271692	2.128937	0.057520
346.336181	2.128942	0.057622
347.400634	2.128944	0.057724
348.465125	2.128932	0.057838
349.529566	2.128935	0.057944
350.594060	2.128920	0.058048
351.658486	2.128878	0.058160
352.722938	2.128863	0.058260
353.787349	2.128877	0.058374
354.851815	2.128884	0.058494
355.916233	2.128858	0.058602
356.980673	2.128843	0.058710
358.045076	2.128850	0.058812
359.109523	2.128866	0.058914
360.173942	2.128861	0.059012
361.238384	2.128844	0.059120
362.302786	2.128846	0.059232
363.367230	2.128849	0.059348
364.431635	2.128825	0.059454
365.496055	2.128809	0.059554
366.560444	2.128821	0.059668
367.624876	2.128815	0.059768
368.689259	2.128792	0.059870
369.753668	2.128764	0.059992
370.818023	2.128772	0.060102
371.882440	2.128791	0.060204
372.946814	2.128743	0.060316
374.011183	2.128728	0.060410
375.075542	2.128744	0.060524
376.139927	2.128732	0.060654
377.204274	2.128752	0.060752
378.268679	2.128739	0.060858
379.333013	2.128721	0.060974
380.397400	2.128729	0.061092
381.461742	2.128686	0.061200
382.526086	2.128671	0.061308
383.590413	2.128702	0.061430
384.654788	2.128715	0.061556
385.719128	2.128731	0.061680
386.783519	2.128717	0.061786
387.847845	2.128702	0.061914
388.912221	2.128660	0.062058
389.976505	2.128606	0.062178
391.040827	2.128646	0.062294
392.105151	2.128692	0.062414
393.169519	2.128648	0.062518
394.233799	2.128574	0.062630
395.298093	2.128555	0.062750
396.362354	2.128605	0.062864
397.426698	2.128624	0.062984
398.490978	2.128589	0.063080
399.555287	2.128576	0.063190
400.619554	2.128576	0.063312
401.683863	2.128620	0.063430
402.748174	2.128642	0.063556
403.812505	2.128620	0.063666
404.876794	2.128604	0.063780
405.941109	2.128581	0.063898
407.005375	2.128558	0.064010
408.069667	2.128537	0.064118
409.133912	2.128548	0.064232
410.198215	2.128550	0.064358
411.262462	2.128525	0.064476
412.326740	2.128504	0.064588
413.390966	2.128512	0.064696
414.455252	2.128537	0.064832
415.519503	2.128520	0.064958
416.583772	2.128500	0.065072
417.648003	2.128518	0.065190
418.712290	2.128511	0.065292
419.776514	2.128483	0.065412
420.840773	2.128470	0.065538
421.904984	2.128450	0.065660
422.969223	2.128440	0.065778
424.033424	2.128453	0.065896
425.097676	2.128455	0.066004
426.161879	2.128452	0.066122
427.226128	2.128462	0.066248
428.290341	2.128469	0.066366
429.354597	2.128464	0.066486
430.418805	2.128449	0.066602
431.483046	2.128428	0.066728
432.547233	2.128427	0.066846
433.611473	2.128413	0.066958
434.675646	2.128403	0.067084
435.739876	2.128410	0.067212
436.804056	2.128385	0.067328
437.868261	2.128360	0.067434
438.932416	2.128389	0.067556
439.996650	2.128408	0.067684
441.060824	2.128398	0.067808
442.125048	2.128407	0.067940
443.189231	2.128388	0.068066
444.253436	2.128373	0.068184
445.317604	2.128378	0.068304
446.381814	2.128364	0.068420
447.445968	2.128346	0.068544
448.510160	2.128336	0.068688
449.574304	2.128356	0.068812
450.638516	2.128372	0.068920
451.702676	2.128349	0.069048
452.766865	2.128337	0.069178
453.831013	2.128335	0.069314
454.895200	2.128325	0.069448
455.959338	2.128308	0.069568
457.023508	2.128294	0.069692
458.087632	2.128298	0.069828
459.151806	2.128289	0.069952
460.215921	2.128285	0.070070
461.280091	2.128297	0.070198
462.344218	2.128289	0.070328
463.408380	2.128281	0.070452
464.472499	2.128279	0.070586
465.536659	2.128282	0.070706
466.600781	2.128285	0.070826
467.664944	2.128259	0.070968
468.729040	2.128235	0.071096
469.793179	2.128230	0.071230
470.857270	2.128215	0.071364
471.921394	2.128229	0.071488
472.985499	2.128254	0.071622
474.049648	2.128242	0.071748
475.113741	2.128221	0.071874
476.177869	2.128215	0.072010
477.241956	2.128216	0.072136
478.306085	2.128200	0.072266
479.370156	2.128199	0.072404
480.434284	2.128209	0.072536
481.498365	2.128197	0.072666
482.562481	2.128188	0.072798
483.626553	2.128203	0.072930
484.690684	2.128195	0.073060
485.754748	2.128174	0.073192
486.818858	2.128183	0.073328
487.882931	2.128195	0.073454
488.947053	2.128193	0.073586
490.011124	2.128176	0.073728
491.075229	2.128176	0.073854
492.139300	2.128173	0.073984
493.203402	2.128148	0.074128
494.267448	2.128146	0.074260
495.331548	2.128131	0.074400
496.395579	2.128121	0.074534
497.459669	2.128123	0.074658
498.523702	2.128115	0.074808
499.587784	2.128100	0.074952
500.651802	2.128101	0.075072
501.715885	2.128113	0.075206
502.779915	2.128089	0.075350
503.843974	2.128082	0.075476
504.907997	2.128086	0.075602
505.972060	2.128076	0.075748
507.036073	2.128081	0.075894
508.100141	2.128081	0.076026
509.164154	2.128063	0.076176
510.228204	2.128040	0.076316
511.292194	2.128045	0.076448
512.356249	2.128041	0.076602
513.420235	2.128006	0.076742
514.484255	2.128015	0.076874
515.548250	2.128042	0.077012
516.612297	2.128033	0.077142
517.676283	2.128013	0.077278
518.740310	2.128024	0.077428
519.804307	2.128029	0.077574
520.868339	2.128014	0.077702
521.932321	2.128014	0.077838
522.996353	2.127995	0.077970
524.060316	2.127973	0.078112
525.124326	2.127981	0.078268
526.188297	2.127997	0.078418
527.252323	2.127996	0.078558
528.316293	2.127980	0.078678
529.380303	2.127980	0.078826
530.444273	2.127973	0.078982
531.508276	2.127964	0.079132
532.572237	2.127973	0.079274
533.636249	2.127983	0.079418
534.700220	2.127972	0.079576
535.764221	2.127957	0.079734
536.828177	2.127972	0.079886
537.892193	2.127951	0.080038
538.956128	2.127948	0.080192
540.020141	2.128000	0.080354
541.084128	2.127976	0.080520
542.148117	2.127929	0.080670
543.212057	2.127972	0.080798
544.276089	2.127963	0.080954
545.340020	2.127904	0.081128
546.403993	2.127904	0.081294
547.467924	2.127871	0.081452
548.531864	2.127847	0.081608
549.595771	2.127873	0.081770
550.659737	2.127849	0.081922
551.723620	2.127822	0.082076
552.787559	2.127853	0.082242
553.851473	2.127872	0.082398
554.915431	2.127834	0.082542
555.979307	2.127828	0.082690
